t	R*(t) n=8	R*(t) n=9	R*(t) n=10
0	1	1	1
2	0.681131	0.649209	0.618783
4	0.46394	0.421473	0.382893
6	0.316004	0.273624	0.236928
8	0.21524	0.177639	0.146607
10	0.146607	0.115325	0.090718
12	0.0998586	0.0748701	0.0561348
14	0.0680168	0.0486064	0.0347353
16	0.0463284	0.0315557	0.0214936
18	0.0315557	0.0204863	0.0132999
20	0.0214936	0.0132999	0.00822975
22	0.01464	0.00863441	0.00509243
24	0.00997174	0.00560554	0.00315111
